"Impedance Magnitude",TCBar-S_#1,,
Unprocessed,,Fit,
X,Y,X,Y
Hz,ohm,Hz,ohm
19.2307692307692,1.85012176785299,19.2307692307692,2.02753106305494
20.8333333333333,1.86000202967639,20.8333333333333,2.02835197605674
22.4358974358974,1.87175386929235,22.4358974358974,2.02935081143049
24.0384615384615,1.88469705877908,24.0384615384615,2.03057418929259
25.6410256410256,1.89858272811716,25.6410256410256,2.03208505679162
27.2435897435897,1.91498426318789,27.2435897435897,2.03396977910652
28.8461538461538,1.93493002851283,28.8461538461538,2.0363490335612
30.448717948718,1.958592673556,30.448717948718,2.03939496991025
32.051282051282,1.98662052074468,32.051282051282,2.04335900045588
33.6538461538462,2.02051135828753,33.6538461538462,2.04861820453528
35.2564102564103,2.06357042937759,35.2564102564103,2.05575546311753
36.8589743589744,2.1186464484843,36.8589743589744,2.06570293559233
38.4615384615385,2.18704183098605,38.4615384615385,2.08000867707761
40.0641025641026,2.26699269826379,40.0641025641026,2.10134906510772
41.6666666666667,2.3519867087562,41.6666666666667,2.13453083760519
43.2692307692308,2.43630450106179,43.2692307692308,2.18837147853536
44.8717948717949,2.52523297930686,44.8717948717949,2.27831239373611
46.474358974359,2.62212942677289,46.474358974359,2.42336334718378
48.0769230769231,2.71113385922216,48.0769230769231,2.60301868294819
49.6794871794872,2.75525590393556,49.6794871794872,2.67082544546629
51.2820512820513,2.7193228418209,51.2820512820513,2.54717446559554
52.8846153846154,2.60883468980388,52.8846153846154,2.38478328520695
54.4871794871795,2.4728698518277,54.4871794871795,2.26883637392769
56.0897435897436,2.3557636375583,56.0897435897436,2.19593820314399
57.6923076923077,2.2650888368617,57.6923076923077,2.14996069832787
59.2948717948718,2.19454926446418,59.2948717948718,2.11988601508784
60.8974358974359,2.13549935378348,60.8974358974359,2.09938561692233
62.5,2.08042025672945,62.5,2.08486898467848
64.1025641025641,2.03160320266707,64.1025641025641,2.074242139363
65.7051282051282,1.99403499453782,65.7051282051282,2.06623774925304
67.3076923076923,1.96581033296402,67.3076923076923,2.06005965488245
68.9102564102564,1.94525598483358,68.9102564102564,2.05519010632261
70.5128205128205,1.93321343953979,70.5128205128205,2.05128176582208
72.1153846153846,1.92608291030411,72.1153846153846,2.04809507077022
73.7179487179487,1.92191262537842,73.7179487179487,2.04546067380411
75.3205128205128,1.92113247291317,75.3205128205128,2.04325621241725
76.9230769230769,1.92203908048562,76.9230769230769,2.04139152898298
78.525641025641,1.92492006857943,78.525641025641,2.03979902243949
80.1282051282051,1.93040504090443,80.1282051282051,2.03842720139275
81.7307692307692,1.93722246928321,81.7307692307692,2.03723628429744
83.3333333333334,1.94366591370744,83.3333333333334,2.03619513841854
84.9358974358974,1.95034463928604,84.9358974358974,2.0352791125657
86.5384615384616,1.95793766830305,86.5384615384616,2.03446847786709
88.1410256410256,1.96679024028913,88.1410256410256,2.0337472894124
89.7435897435898,1.97735768709438,89.7435897435898,2.03310254387973
91.3461538461539,1.98896974492272,91.3461538461539,2.03252354839235
92.948717948718,2.00087361431112,92.948717948718,2.03200144217567
94.5512820512821,2.01262068264807,94.5512820512821,2.03152883014284
96.1538461538462,2.02469846274558,96.1538461538462,2.03109949943072
97.7564102564103,2.03769891045223,97.7564102564103,2.03070819808008
99.3589743589744,2.0506173316281,99.3589743589744,2.03035046074607
100.961538461538,2.06380619395703,100.961538461538,2.03002247033835
102.564102564103,2.07803040633849,102.564102564103,2.02972094735476
104.166666666667,2.09227940726305,104.166666666667,2.02944306073788
105.769230769231,2.10573916491508,105.769230769231,2.02918635559019
107.371794871795,2.1196209269348,107.371794871795,2.02894869419155
108.341845580767,2.13331326195309,108.341845580767,2.02872820758599
109.973927659341,2.14691787721026,109.973927659341,2.02852325562137
111.630595731414,2.16125218372307,111.630595731414,2.02833239379147
113.312220165049,2.17626237821504,113.312220165049,2.02815434558432
115.019176907602,2.19155396432651,115.019176907602,2.0279879793126
116.751847569772,2.20720230814083,116.751847569772,2.02783228861172
118.589743589744,2.22350147738329,118.589743589744,2.02768637595432
120.192307692308,2.24106894428366,120.192307692308,2.02754943865744
120.295885925636,2.26037561058009,120.295885925636,2.02742075695903
122.108045931707,2.28050314812718,122.108045931707,2.02729968381987
123.947504659278,2.30030211955958,123.947504659278,2.02718563617004
125.814673341461,2.32076912859478,125.814673341461,2.02707808736968
127.709969406259,2.34237567992574,127.709969406259,2.02697656069454
129.63381656989,2.36550775220532,129.63381656989,2.02688062368915
131.410256410256,2.3899212835943,131.410256410256,2.02678988325754
133.012820512821,2.41565351935368,133.012820512821,2.02670398138289
133.568891069385,2.44261761957061,133.568891069385,2.02662259138502
135.580998138456,2.47066030533561,135.580998138456,2.02654541463971
137.820512820513,2.50023050791381,137.820512820513,2.02647217769523
139.423076923077,2.52975129150606,139.423076923077,2.02640262973189
139.696601169422,2.55860721744342,139.696601169422,2.02633654031852
141.801017223847,2.588291559701,141.801017223847,2.02627369742648
143.93713460023,2.62089632571119,143.93713460023,2.02621390566793
145.833333333333,2.65475533500971,145.833333333333,2.02615698472959
147.435897435897,2.6898418878826,147.435897435897,2.02610276797748
148.306390731715,2.72646857209495,148.306390731715,2.02605110121151
150.641025641026,2.76538261934049,150.641025641026,2.02600184155166
152.24358974359,2.8063945301134,152.24358974359,2.02595485644
152.808276981171,2.84912236836698,152.808276981171,2.02591002274492
155.448717948718,2.8921637183556,155.448717948718,2.02586722595561
157.051282051282,2.93774925264066,157.051282051282,2.02582635945667
157.446819376752,2.987282483265,157.446819376752,2.02578732387354
159.81862807962,3.03842192617783,159.81862807962,2.02575002648111
161.858974358974,3.0920527075543,161.858974358974,2.02571438066853
163.461538461538,3.14821234967307,163.461538461538,2.02568030545407
165.064102564103,3.20642391731022,165.064102564103,2.02564772504489
166.666666666667,3.26748287716093,166.666666666667,2.02561656843674
167.150591485296,3.3321709501624,167.150591485296,2.0255867690498
169.871794871795,3.39976329917052,169.871794871795,2.02555826439662
171.474358974359,3.46961561512401,171.474358974359,2.02553099577916
172.22449926286,3.54309136372593,172.22449926286,2.025504908012
174.679487179487,3.62153901114811,174.679487179487,2.02547994916903
176.282051282051,3.7050852808764,176.282051282051,2.0254560703515
177.884615384615,3.79234003852769,177.884615384615,2.0254332254753
179.48717948718,3.88521323129526,179.48717948718,2.02541137107566
180.125604042256,3.98262675541712,180.125604042256,2.02539046612767
182.692307692308,4.08468674017284,182.692307692308,2.02537047188113
184.294871794872,4.19140456762057,184.294871794872,2.02535135170848
185.897435897436,4.3095735614062,185.897435897436,2.02533307096454
187.5,4.43177827479618,187.5,2.02531559685712
188.389186035997,4.55874177077602,188.389186035997,2.02529889832747
190.705128205128,4.69897588183469,190.705128205128,2.02528294593972
192.307692307692,4.84656402166061,192.307692307692,2.02526771177857
193.910256410256,5.00462218494365,193.910256410256,2.0252531693545
195.512820512821,5.17348845197155,195.512820512821,2.02523929351594
197.115384615385,5.35064740978041,197.115384615385,2.02522606036766
198.717948717949,5.54381586702934,198.717948717949,2.02521344719504
200.320512820513,5.75541996373309,200.320512820513,2.0252014323937
201.923076923077,5.97886052926375,201.923076923077,2.02518999540395
203.525641025641,6.21686410259336,203.525641025641,2.02517911664984
205.128205128205,6.46550502959142,205.128205128205,2.0251687774823
206.730769230769,6.74002578614254,206.730769230769,2.02515896012622
208.333333333333,7.06046648219322,208.333333333333,2.02514964763092
209.935897435897,7.40291269038962,209.935897435897,2.02514082382406
211.538461538462,7.77822074081253,211.538461538462,2.02513247326842
212.32641236826,8.19519376608834,212.32641236826,2.02512458122158
214.74358974359,8.64486791719296,214.74358974359,2.02511713359819
216.346153846154,9.13274422743439,216.346153846154,2.02511011693452
217.948717948718,9.63515431037153,217.948717948718,2.02510351835543
221.153846153846,10.7794946380751,221.153846153846,2.02509152670852
222.75641025641,11.4439012585972,222.75641025641,2.02508611056291
224.358974358974,12.1830616522876,224.358974358974,2.02508106629321
225.961538461538,12.9970959923042,225.961538461538,2.02507638353732
227.564102564103,13.8653612388168,227.564102564103,2.02507205236152
229.166666666667,14.7457515701044,229.166666666667,2.025068063239
230.769230769231,15.6522128836704,230.769230769231,2.02506440702983
232.371794871795,16.5513770107569,232.371794871795,2.02506107496192
233.974358974359,17.4282606165183,233.974358974359,2.02505805861314
235.576923076923,18.1911604105546,235.576923076923,2.02505534989448
237.179487179487,18.7052360592844,237.179487179487,2.02505294103415
238.782051282051,18.9322234547768,238.782051282051,2.02505082456249
240.384615384615,18.8539261937773,240.384615384615,2.02504899329786
241.98717948718,18.4892013368428,241.98717948718,2.02504744033318
245.192307692308,17.4881031712622,245.192307692308,2.02504514297279
246.794871794872,16.7286374819983,246.794871794872,2.02504438602506
248.397435897436,15.8490744874952,248.397435897436,2.02504388225111
250,14.9105390483953,250,2.02504362593963
251.602564102564,13.9904309528726,251.602564102564,2.02504361158727
253.205128205128,13.1798881326039,253.205128205128,2.02504383388951
256.410256410256,11.7397512951761,256.410256410256,2.02504496818222
258.012820512821,11.1235798969488,258.012820512821,2.02504587048189
259.615384615385,10.5381881878955,259.615384615385,2.02504699003932
261.217948717949,10.0066501380572,261.217948717949,2.02504832242247
264.423076923077,9.07290758078894,264.423076923077,2.02505160869603
266.025641025641,8.6684920937837,266.025641025641,2.02505355446181
267.628205128205,8.30565672648562,267.628205128205,2.02505569679223
269.230769230769,7.96888715172439,269.230769230769,2.02505803195918
272.435897435897,7.3718103645435,272.435897435897,2.02506326650528
274.038461538462,7.11065265541954,274.038461538462,2.02506615902854
275.641025641026,6.85976543924204,275.641025641026,2.02506923066729
277.24358974359,6.62661702276538,277.24358974359,2.02507247826592
280.448717948718,6.21592323434126,280.448717948718,2.025079489223
282.051282051282,6.03624122610567,282.051282051282,2.0250832467613
283.653846153846,5.86253311572374,283.653846153846,2.02508716861182
285.25641025641,5.6941565367119,285.25641025641,2.02509125208799
288.461538461538,5.39338923093223,288.461538461538,2.02509989358482
290.064102564103,5.26013348087932,290.064102564103,2.02510444663686
293.269230769231,5.01762820625713,293.269230769231,2.02511400548908
294.871794871795,4.90792078743238,294.871794871795,2.02511900675913
296.474358974359,4.80273839621746,296.474358974359,2.02512415301762
298.076923076923,4.7024703796,298.076923076923,2.02512944216473
301.282051282051,4.51412675414994,301.282051282051,2.02514044103252
302.884615384615,4.42556713278903,302.884615384615,2.02514614685412
306.089743589744,4.2662025289297,306.089743589744,2.02515796194458
307.692307692308,4.19271768936265,307.692307692308,2.02516406764188
310.897435897436,4.05227408444369,310.897435897436,2.02517666678908
312.5,3.98855519515722,312.5,2.0251831569621
315.705128205128,3.86872759496473,315.705128205128,2.02519651065492
317.307692307692,3.81293791431874,317.307692307692,2.02520337116353
320.512820512821,3.70722290469818,320.512820512821,2.02521745228422
322.115384615385,3.65641878476801,322.115384615385,2.0252246701251
325.320512820513,3.56272828484465,325.320512820513,2.0252394537176
326.923076923077,3.51699753670696,326.923076923077,2.02524701691518
330.128205128205,3.43307541328318,330.128205128205,2.02526247997944
331.730769230769,3.39374218378012,331.730769230769,2.0252703774889
334.935897435897,3.3202404039109,334.935897435897,2.02528649879778
336.538461538462,3.28576899525591,336.538461538462,2.0252947204187
339.74358974359,3.21883961678563,339.74358974359,2.02531148035483
341.346153846154,3.18629321985404,341.346153846154,2.02532001665407
344.551282051282,3.12457247958025,344.551282051282,2.02533739706401
346.153846153846,3.096294051831,346.153846153846,2.02534623930679
350.961538461538,3.01875106155393,350.961538461538,2.02537336345863
352.564102564103,2.9940961910426,352.564102564103,2.02538260113083
355.769230769231,2.94716300263047,355.769230769231,2.02540136598894
357.371794871795,2.92398101412971,357.371794871795,2.0254108916041
360.576923076923,2.87901128390534,360.576923076923,2.02543022541962
362.179487179487,2.85790228726294,362.179487179487,2.02544003215887
366.98717948718,2.79738830263784,366.98717948718,2.02547000329262
368.589743589744,2.77810907473206,368.589743589744,2.02548017506773
371.794871794872,2.74014369596091,371.794871794872,2.02550078684096
373.397435897436,2.72342069400938,373.397435897436,2.02551122559969
378.205128205128,2.67487217313912,378.205128205128,2.02554306622043
379.807692307692,2.65982470599221,379.807692307692,2.0255538526355
383.012820512821,2.62970197022993,383.012820512821,2.02557568147888
384.615384615385,2.61480166332761,384.615384615385,2.02558672285
389.423076923077,2.57201792020146,389.423076923077,2.02562034865925
391.025641025641,2.55809345218385,391.025641025641,2.02563172286356
394.230769230769,2.53270006653413,394.230769230769,2.02565471684891
395.833333333333,2.52001181742153,395.833333333333,2.02566633572343
400.641025641026,2.48504151989984,400.641025641026,2.02570167463575
402.24358974359,2.47443094252017,402.24358974359,2.02571361363434
407.051282051282,2.4427919588119,407.051282051282,2.0257499030696
408.653846153846,2.43266261889736,408.653846153846,2.02576215573941
413.461538461538,2.40381277512356,413.461538461538,2.02579937713142
415.064102564103,2.3953379921317,415.064102564103,2.02581193753691
419.871794871795,2.3685896875836,419.871794871795,2.0258500737954
421.474358974359,2.36112254383615,421.474358974359,2.02586293646886
426.282051282051,2.33748665090803,426.282051282051,2.0259019718393
427.884615384615,2.32904206223579,427.884615384615,2.02591513173679
432.692307692308,2.3056852833622,432.692307692308,2.0259550516757
434.294871794872,2.2989495879871,434.294871794872,2.02596850413778
439.102564102564,2.28229714063036,439.102564102564,2.02600929520142
440.705128205128,2.27577956138495,440.705128205128,2.02602303591813
445.512820512821,2.25755717539463,445.512820512821,2.02606468566304
447.115384615385,2.25256259513655,447.115384615385,2.02607871064252
451.923076923077,2.23250590448317,451.923076923077,2.02612120753639
453.525641025641,2.22598860018255,453.525641025641,2.02613551307676
458.333333333333,2.2097767622225,458.333333333333,2.02617884641858
459.935897435897,2.20627953480622,459.935897435897,2.02619342908273
464.74358974359,2.19665105799255,464.74358974359,2.02623758893091
466.346153846154,2.19218015786369,466.346153846154,2.02625244552374
472.75641025641,2.17446498699365,472.75641025641,2.02631255017953
474.358974358974,2.17004596337231,474.358974358974,2.02632774502594
479.166666666667,2.15578389889244,479.166666666667,2.02637373166943
480.769230769231,2.15132519178015,480.769230769231,2.02638919403783
487.179487179487,2.1335366001108,487.179487179487,2.02645170673378
488.782051282051,2.12948960681185,488.782051282051,2.02646749995317
493.589743589744,2.11774094928221,493.589743589744,2.0265152733788
495.192307692308,2.11379455101293,495.192307692308,2.02653132864022
501.602564102564,2.09993454515238,501.602564102564,2.026596199998
503.205128205128,2.09672455766315,503.205128205128,2.02661257976178
509.615384615385,2.08419366465085,509.615384615385,2.02667874274937
511.217948717949,2.08102885065626,511.217948717949,2.02669544387696
517.628205128205,2.06940692320206,517.628205128205,2.02676288643792
519.230769230769,2.0664294151626,519.230769230769,2.02677990603482
524.038461538462,2.05733113520778,524.038461538462,2.02683134460453
525.641025641026,2.05449813156745,525.641025641026,2.02684861704219
532.051282051282,2.04339161758405,532.051282051282,2.02691833536439
533.653846153846,2.04053942582222,533.653846153846,2.02693592160486
540.064102564103,2.03146885674114,540.064102564103,2.02700689041701
541.666666666667,2.02917946624184,541.666666666667,2.02702478813511
548.076923076923,2.02022893711083,548.076923076923,2.02709699848144
549.679487179487,2.01809252955581,549.679487179487,2.02711520552128
557.692307692308,2.00697246031998,557.692307692308,2.02720716345264
559.294871794872,2.00483251872897,559.294871794872,2.02722573904916
565.705128205128,1.99764489191357,565.705128205128,2.02730065234911
567.307692307692,1.99616542319718,567.307692307692,2.02731953304883
573.717948717949,1.98871171984211,573.717948717949,2.02739566329815
575.320512820513,1.98680508552266,575.320512820513,2.02741484739355
581.730769230769,1.9806519635572,581.730769230769,2.02749218799787
583.333333333333,1.97913634734965,583.333333333333,2.02751167389724
591.346153846154,1.97316100121828,591.346153846154,2.02761000492354
592.948717948718,1.97163172288998,592.948717948718,2.02762985103549
600.961538461538,1.96567643217649,600.961538461538,2.027729978116
602.564102564103,1.96458483160578,602.564102564103,2.02775018246791
608.974358974359,1.95975992659077,608.974358974359,2.0278315946366
610.576923076923,1.95903930634954,610.576923076923,2.02785209612429
618.589743589744,1.95201726405357,618.589743589744,2.02795549187372
620.192307692308,1.95113835200671,620.192307692308,2.0279763483666
628.205128205128,1.94633528117355,628.205128205128,2.02808151513131
629.807692307692,1.9457739133783,629.807692307692,2.02810272504843
637.820512820513,1.93965400623366,637.820512820513,2.02820965521486
639.423076923077,1.93912082614216,639.423076923077,2.0282312170896
647.435897435897,1.93342195309732,647.435897435897,2.0283399035893
649.038461538462,1.93298448782161,649.038461538462,2.02836181605899
657.051282051282,1.92641825555317,657.051282051282,2.02847225231949
658.653846153846,1.92478854581377,658.653846153846,2.02849451411611
666.666666666667,1.92148619644584,666.666666666667,2.02860669401683
668.269230769231,1.92043483730534,668.269230769231,2.02862930395864
676.282051282051,1.91618619587549,676.282051282051,2.02874322179134
677.884615384616,1.91599145521066,677.884615384616,2.02876617877538
685.897435897436,1.91248954641362,685.897435897436,2.02888182920846
687.5,1.9116788641538,687.5,2.02890513220381
697.115384615385,1.9063512826378,697.115384615385,2.02904615829188
698.717948717949,1.90625586295563,698.717948717949,2.02906986375174
706.730769230769,1.90327393603001,706.730769230769,2.02918925146352
708.333333333334,1.90242600305553,708.333333333334,2.02921330091982
717.948717948718,1.89832737588719,717.948717948718,2.02935879909974
719.551282051282,1.89809105381566,719.551282051282,2.02938324882664
729.166666666667,1.89505137524074,729.166666666667,2.02953114539247
730.769230769231,1.89400327067048,730.769230769231,2.02955599432509
740.384615384616,1.8917675747383,740.384615384616,2.02970628310693
741.98717948718,1.89119991125634,741.98717948718,2.02973153025219
751.602564102564,1.88913641325924,751.602564102564,2.02988420549081
753.205128205128,1.88896923822929,753.205128205128,2.02990984992087
762.820512820513,1.88613163383123,762.820512820513,2.03006490623028
764.423076923077,1.88575035496106,764.423076923077,2.03009094707658
774.038461538462,1.88425265272106,774.038461538462,2.03024837941046
775.641025641026,1.88392851582081,775.641025641026,2.03027481585849
785.25641025641,1.88231049589549,785.25641025641,2.03043461947998
