"Impedance Magnitude",TCBar-S_#1,,
Unprocessed,,Fit,
X,Y,X,Y
Hz,ohm,Hz,ohm
19.2307692307692,1.85012176785299,19.2307692307692,2.02753106305494
20.8333333333333,1.86000202967639,20.8333333333333,2.02835197605674
22.4358974358974,1.87175386929235,22.4358974358974,2.02935081143049
24.0384615384615,1.88469705877908,24.0384615384615,2.03057418929259
25.6410256410256,1.89858272811716,25.6410256410256,2.03208505679162
27.2435897435897,1.91498426318789,27.2435897435897,2.03396977910652
28.8461538461538,1.93493002851283,28.8461538461538,2.0363490335612
30.448717948718,1.958592673556,30.448717948718,2.03939496991025
32.051282051282,1.98662052074468,32.051282051282,2.04335900045588
33.6538461538462,2.02051135828753,33.6538461538462,2.04861820453528
35.2564102564103,2.06357042937759,35.2564102564103,2.05575546311753
36.8589743589744,2.1186464484843,36.8589743589744,2.06570293559233
38.4615384615385,2.18704183098605,38.4615384615385,2.08000867707761
40.0641025641026,2.26699269826379,40.0641025641026,2.10134906510772
41.6666666666667,2.3519867087562,41.6666666666667,2.13453083760519
43.2692307692308,2.43630450106179,43.2692307692308,2.18837147853536
44.8717948717949,2.52523297930686,44.8717948717949,2.27831239373611
46.474358974359,2.62212942677289,46.474358974359,2.42336334718378
48.0769230769231,2.71113385922216,48.0769230769231,2.60301868294819
49.6794871794872,2.75525590393556,49.6794871794872,2.67082544546629
51.2820512820513,2.7193228418209,51.2820512820513,2.54717446559554
52.8846153846154,2.60883468980388,52.8846153846154,2.38478328520695
54.4871794871795,2.4728698518277,54.4871794871795,2.26883637392769
56.0897435897436,2.3557636375583,56.0897435897436,2.19593820314399
57.6923076923077,2.2650888368617,57.6923076923077,2.14996069832787
59.2948717948718,2.19454926446418,59.2948717948718,2.11988601508784
60.8974358974359,2.13549935378348,60.8974358974359,2.09938561692233
62.5,2.08042025672945,62.5,2.08486898467848
64.1025641025641,2.03160320266707,64.1025641025641,2.074242139363
65.7051282051282,1.99403499453782,65.7051282051282,2.06623774925304
67.3076923076923,1.96581033296402,67.3076923076923,2.06005965488245
68.9102564102564,1.94525598483358,68.9102564102564,2.05519010632261
70.5128205128205,1.93321343953979,70.5128205128205,2.05128176582208
72.1153846153846,1.92608291030411,72.1153846153846,2.04809507077022
73.7179487179487,1.92191262537842,73.7179487179487,2.04546067380411
75.3205128205128,1.92113247291317,75.3205128205128,2.04325621241725
76.9230769230769,1.92203908048562,76.9230769230769,2.04139152898298
78.525641025641,1.92492006857943,78.525641025641,2.03979902243949
80.1282051282051,1.93040504090443,80.1282051282051,2.03842720139275
81.7307692307692,1.93722246928321,81.7307692307692,2.03723628429744
83.3333333333334,1.94366591370744,83.3333333333334,2.03619513841854
84.9358974358974,1.95034463928604,84.9358974358974,2.0352791125657
86.5384615384616,1.95793766830305,86.5384615384616,2.03446847786709
88.1410256410256,1.96679024028913,88.1410256410256,2.0337472894124
89.7435897435898,1.97735768709438,89.7435897435898,2.03310254387973
91.3461538461539,1.98896974492272,91.3461538461539,2.03252354839235
92.948717948718,2.00087361431112,92.948717948718,2.03200144217567
94.5512820512821,2.01262068264807,94.5512820512821,2.03152883014284
96.1538461538462,2.02469846274558,96.1538461538462,2.03109949943072
97.7564102564103,2.03769891045223,97.7564102564103,2.03070819808008
99.3589743589744,2.0506173316281,99.3589743589744,2.03035046074607
100.961538461538,2.06380619395703,100.961538461538,2.03002247033835
102.564102564103,2.07803040633849,102.564102564103,2.02972094735476
104.166666666667,2.09227940726305,104.166666666667,2.02944306073788
105.769230769231,2.10573916491508,105.769230769231,2.02918635559019
107.371794871795,2.1196209269348,107.371794871795,2.02894869419155
107.428247546679,2.13331326195309,107.428247546679,2.02872820758599
109.082644837784,2.14691787721026,109.082644837784,2.02852325562137
110.762519882267,2.16125218372307,110.762519882267,2.02833239379147
112.46826503807,2.17626237821504,112.46826503807,2.02815434558432
114.200278705456,2.19155396432651,114.200278705456,2.0279879793126
115.958965420062,2.20720230814083,115.958965420062,2.02783228861172
117.74473594738,2.22350147738329,117.74473594738,2.02768637595432
119.5580073787,2.24106894428366,119.5580073787,2.02754943865744
121.399203228528,2.26037561058009,121.399203228528,2.02742075695903
123.397435897436,2.28050314812718,123.397435897436,2.02729968381987
125,2.30030211955958,125,2.02718563617004
125.167094952828,2.32076912859478,125.167094952828,2.02707808736968
127.094670870283,2.34237567992574,127.094670870283,2.02697656069454
129.051931497757,2.36550775220532,129.051931497757,2.02688062368915
131.039333980414,2.3899212835943,131.039333980414,2.02678988325754
133.012820512821,2.41565351935368,133.012820512821,2.02670398138289
134.615384615385,2.44261761957061,134.615384615385,2.02662259138502
135.106428400574,2.47066030533561,135.106428400574,2.02654541463971
137.187070263969,2.50023050791381,137.187070263969,2.02647217769523
139.423076923077,2.52975129150606,139.423076923077,2.02640262973189
141.025641025641,2.55860721744342,141.025641025641,2.02633654031852
141.444973223641,2.588291559701,141.444973223641,2.02627369742648
143.623228811771,2.62089632571119,143.623228811771,2.02621390566793
145.833333333333,2.65475533500971,145.833333333333,2.02615698472959
147.435897435897,2.6898418878826,147.435897435897,2.02610276797748
148.080892131344,2.72646857209495,148.080892131344,2.02605110121151
150.641025641026,2.76538261934049,150.641025641026,2.02600184155166
152.24358974359,2.8063945301134,152.24358974359,2.02595485644
152.676908852627,2.84912236836698,152.676908852627,2.02591002274492
155.028136487707,2.8921637183556,155.028136487707,2.02586722595561
157.051282051282,2.93774925264066,157.051282051282,2.02582635945667
158.653846153846,2.987282483265,158.653846153846,2.02578732387354
160.25641025641,3.03842192617783,160.25641025641,2.02575002648111
161.858974358974,3.0920527075543,161.858974358974,2.02571438066853
162.301312187759,3.14821234967307,162.301312187759,2.02568030545407
165.064102564103,3.20642391731022,165.064102564103,2.02564772504489
166.666666666667,3.26748287716093,166.666666666667,2.02561656843674
167.33869097421,3.3321709501624,167.33869097421,2.0255867690498
169.871794871795,3.39976329917052,169.871794871795,2.02555826439662
171.474358974359,3.46961561512401,171.474358974359,2.02553099577916
172.532415909044,3.54309136372593,172.532415909044,2.025504908012
174.679487179487,3.62153901114811,174.679487179487,2.02547994916903
176.282051282051,3.7050852808764,176.282051282051,2.0254560703515
177.884615384615,3.79234003852769,177.884615384615,2.0254332254753
179.48717948718,3.88521323129526,179.48717948718,2.02541137107566
181.089743589744,3.98262675541712,181.089743589744,2.02539046612767
182.692307692308,4.08468674017284,182.692307692308,2.02537047188113
183.408465021987,4.19140456762057,183.408465021987,2.02535135170848
185.897435897436,4.3095735614062,185.897435897436,2.02533307096454
187.5,4.43177827479618,187.5,2.02531559685712
189.102564102564,4.55874177077602,189.102564102564,2.02529889832747
190.705128205128,4.69897588183469,190.705128205128,2.02528294593972
192.307692307692,4.84656402166061,192.307692307692,2.02526771177857
193.910256410256,5.00462218494365,193.910256410256,2.0252531693545
195.512820512821,5.17348845197155,195.512820512821,2.02523929351594
197.115384615385,5.35064740978041,197.115384615385,2.02522606036766
197.972659323052,5.54381586702934,197.972659323052,2.02521344719504
200.320512820513,5.75541996373309,200.320512820513,2.0252014323937
201.923076923077,5.97886052926375,201.923076923077,2.02518999540395
203.525641025641,6.21686410259336,203.525641025641,2.02517911664984
205.128205128205,6.46550502959142,205.128205128205,2.0251687774823
206.730769230769,6.74002578614254,206.730769230769,2.02515896012622
208.333333333333,7.06046648219322,208.333333333333,2.02514964763092
209.935897435897,7.40291269038962,209.935897435897,2.02514082382406
211.538461538462,7.77822074081253,211.538461538462,2.02513247326842
213.141025641026,8.19519376608834,213.141025641026,2.02512458122158
214.74358974359,8.64486791719296,214.74358974359,2.02511713359819
216.346153846154,9.13274422743439,216.346153846154,2.02511011693452
217.948717948718,9.63515431037153,217.948717948718,2.02510351835543
219.551282051282,10.1771618761094,219.551282051282,2.02509732554322
222.75641025641,11.4439012585972,222.75641025641,2.02508611056291
224.358974358974,12.1830616522876,224.358974358974,2.02508106629321
225.961538461538,12.9970959923042,225.961538461538,2.02507638353732
227.564102564103,13.8653612388168,227.564102564103,2.02507205236152
229.166666666667,14.7457515701044,229.166666666667,2.025068063239
230.769230769231,15.6522128836704,230.769230769231,2.02506440702983
232.371794871795,16.5513770107569,232.371794871795,2.02506107496192
233.974358974359,17.4282606165183,233.974358974359,2.02505805861314
235.576923076923,18.1911604105546,235.576923076923,2.02505534989448
237.179487179487,18.7052360592844,237.179487179487,2.02505294103415
240.384615384615,18.9322234547768,240.384615384615,2.02504899329786
241.98717948718,18.4892013368428,241.98717948718,2.02504744033318
243.589743589744,18.0060241128715,243.589743589744,2.02504615902325
245.192307692308,17.4881031712622,245.192307692308,2.02504514297279
246.794871794872,16.7286374819983,246.794871794872,2.02504438602506
248.397435897436,15.8490744874952,248.397435897436,2.02504388225111
251.602564102564,13.9904309528726,251.602564102564,2.02504361158727
253.205128205128,13.1798881326039,253.205128205128,2.02504383388951
254.807692307692,12.4259665232423,254.807692307692,2.02504428773197
256.410256410256,11.7397512951761,256.410256410256,2.02504496818222
258.012820512821,11.1235798969488,258.012820512821,2.02504587048189
259.615384615385,10.5381881878955,259.615384615385,2.02504699003932
262.820512820513,9.52319987649623,262.820512820513,2.02504986335223
264.423076923077,9.07290758078894,264.423076923077,2.02505160869603
266.025641025641,8.6684920937837,266.025641025641,2.02505355446181
267.628205128205,8.30565672648562,267.628205128205,2.02505569679223
270.833333333333,7.65375173903476,270.833333333333,2.02506055635856
272.435897435897,7.3718103645435,272.435897435897,2.02506326650528
275.641025641026,6.85976543924204,275.641025641026,2.02506923066729
277.24358974359,6.62661702276538,277.24358974359,2.02507247826592
278.846153846154,6.40963587797631,278.846153846154,2.02507589877012
280.448717948718,6.21592323434126,280.448717948718,2.025079489223
283.653846153846,5.86253311572374,283.653846153846,2.02508716861182
285.25641025641,5.6941565367119,285.25641025641,2.02509125208799
288.461538461538,5.39338923093223,288.461538461538,2.02509989358482
290.064102564103,5.26013348087932,290.064102564103,2.02510444663686
291.666666666667,5.13525482349067,291.666666666667,2.02510915137148
293.269230769231,5.01762820625713,293.269230769231,2.02511400548908
296.474358974359,4.80273839621746,296.474358974359,2.02512415301762
298.076923076923,4.7024703796,298.076923076923,2.02512944216473
301.282051282051,4.51412675414994,301.282051282051,2.02514044103252
302.884615384615,4.42556713278903,302.884615384615,2.02514614685412
306.089743589744,4.2662025289297,306.089743589744,2.02515796194458
307.692307692308,4.19271768936265,307.692307692308,2.02516406764188
310.897435897436,4.05227408444369,310.897435897436,2.02517666678908
312.5,3.98855519515722,312.5,2.0251831569621
315.705128205128,3.86872759496473,315.705128205128,2.02519651065492
317.307692307692,3.81293791431874,317.307692307692,2.02520337116353
320.512820512821,3.70722290469818,320.512820512821,2.02521745228422
322.115384615385,3.65641878476801,322.115384615385,2.0252246701251
325.320512820513,3.56272828484465,325.320512820513,2.0252394537176
326.923076923077,3.51699753670696,326.923076923077,2.02524701691518
330.128205128205,3.43307541328318,330.128205128205,2.02526247997944
331.730769230769,3.39374218378012,331.730769230769,2.0252703774889
334.935897435897,3.3202404039109,334.935897435897,2.02528649879778
336.538461538462,3.28576899525591,336.538461538462,2.0252947204187
341.346153846154,3.18629321985404,341.346153846154,2.02532001665407
342.948717948718,3.15537180941975,342.948717948718,2.02532865587238
346.153846153846,3.096294051831,346.153846153846,2.02534623930679
347.75641025641,3.06922992159437,347.75641025641,2.02535518170135
350.961538461538,3.01875106155393,350.961538461538,2.02537336345863
352.564102564103,2.9940961910426,352.564102564103,2.02538260113083
355.769230769231,2.94716300263047,355.769230769231,2.02540136598894
357.371794871795,2.92398101412971,357.371794871795,2.0254108916041
362.179487179487,2.85790228726294,362.179487179487,2.02544003215887
363.782051282051,2.83796036442534,363.782051282051,2.02544993117367
366.98717948718,2.79738830263784,366.98717948718,2.02547000329262
368.589743589744,2.77810907473206,368.589743589744,2.02548017506773
373.397435897436,2.72342069400938,373.397435897436,2.02551122559969
375,2.70773800127198,375,2.02552175213703
379.807692307692,2.65982470599221,379.807692307692,2.0255538526355
381.410256410256,2.64480376742117,381.410256410256,2.02556472456648
384.615384615385,2.61480166332761,384.615384615385,2.02558672285
386.217948717949,2.60042203916784,386.217948717949,2.02559784816863
391.025641025641,2.55809345218385,391.025641025641,2.02563172286356
392.628205128205,2.54524147192334,392.628205128205,2.0256431790795
397.435897435897,2.50768998336371,397.435897435897,2.02567803526425
399.038461538462,2.49623166055859,399.038461538462,2.02568981504184
402.24358974359,2.47443094252017,402.24358974359,2.02571361363434
403.846153846154,2.46370390299928,403.846153846154,2.02572563163458
408.653846153846,2.43266261889736,408.653846153846,2.02576215573941
410.25641025641,2.42235106019338,410.25641025641,2.02577448588051
415.064102564103,2.3953379921317,415.064102564103,2.02581193753691
416.666666666667,2.38603927955048,416.666666666667,2.02582457400473
421.474358974359,2.36112254383615,421.474358974359,2.02586293646886
423.076923076923,2.35387806725216,423.076923076923,2.02587587390554
427.884615384615,2.32904206223579,427.884615384615,2.02591513173679
429.48717948718,2.32133086489687,429.48717948718,2.02592836519802
434.294871794872,2.2989495879871,434.294871794872,2.02596850413778
435.897435897436,2.29313794640305,435.897435897436,2.02598202905464
442.307692307692,2.2692750301773,442.307692307692,2.02603684806299
443.910256410256,2.26319457013785,443.910256410256,2.02605073139132
448.717948717949,2.24620801182968,448.717948717949,2.02609280609852
450.320512820513,2.23907277051613,450.320512820513,2.02610697180407
455.128205128205,2.2200678209352,455.128205128205,2.02614988821049
456.730769230769,2.21487550260346,456.730769230769,2.02616433272675
463.141025641026,2.20051600401427,463.141025641026,2.02622280053316
464.74358974359,2.19665105799255,464.74358974359,2.02623758893091
469.551282051282,2.18302787350056,469.551282051282,2.02628236255491
471.153846153846,2.17903523109529,471.153846153846,2.0262974226315
475.961538461538,2.16548536436854,475.961538461538,2.02634300700065
477.564102564103,2.16035155170542,477.564102564103,2.02635833593657
483.974358974359,2.14191486597485,483.974358974359,2.0264203180493
485.576923076923,2.13773059970219,485.576923076923,2.02643597938309
491.98717948718,2.12152188528865,491.98717948718,2.02649928341775
493.589743589744,2.11774094928221,493.589743589744,2.0265152733788
498.397435897436,2.10682220407604,498.397435897436,2.02656363452139
500,2.10352902461027,500,2.02657988487535
506.410256410256,2.09069870142561,506.410256410256,2.02664553271298
508.012820512821,2.08750733974052,508.012820512821,2.02666210565551
514.423076923077,2.07514993901944,514.423076923077,2.02672903777237
516.025641025641,2.07225555322829,516.025641025641,2.02674593031424
522.435897435897,2.06064497681521,522.435897435897,2.02681413522251
524.038461538462,2.05733113520778,524.038461538462,2.02683134460453
530.448717948718,2.04601555677363,530.448717948718,2.02690081169278
532.051282051282,2.04339161758405,532.051282051282,2.02691833536439
538.461538461538,2.03376172679037,538.461538461538,2.02698905481679
540.064102564103,2.03146885674114,540.064102564103,2.02700689041701
546.474358974359,2.02271812513219,546.474358974359,2.02707885314108
548.076923076923,2.02022893711083,548.076923076923,2.02709699848144
556.089743589744,2.00950151993472,556.089743589744,2.02718864909259
557.692307692308,2.00697246031998,557.692307692308,2.02720716345264
564.102564102564,1.9993206715975,564.102564102564,2.02728183252955
565.705128205128,1.99764489191357,565.705128205128,2.02730065234911
572.115384615385,1.99051066090554,572.115384615385,2.02737653975099
573.717948717949,1.98871171984211,573.717948717949,2.02739566329815
581.730769230769,1.9806519635572,581.730769230769,2.02749218799787
583.333333333333,1.97913634734965,583.333333333333,2.02751167389724
589.74358974359,1.974211151724,589.74358974359,2.02759021870573
591.346153846154,1.97316100121828,591.346153846154,2.02761000492354
599.358974358974,1.96690898989831,599.358974358974,2.02770983334036
600.961538461538,1.96567643217649,600.961538461538,2.027729978116
608.974358974359,1.95975992659077,608.974358974359,2.0278315946366
610.576923076923,1.95903930634954,610.576923076923,2.02785209612429
618.589743589744,1.95201726405357,618.589743589744,2.02795549187372
620.192307692308,1.95113835200671,620.192307692308,2.0279763483666
628.205128205128,1.94633528117355,628.205128205128,2.02808151513131
629.807692307692,1.9457739133783,629.807692307692,2.02810272504843
637.820512820513,1.93965400623366,637.820512820513,2.02820965521486
639.423076923077,1.93912082614216,639.423076923077,2.0282312170896
647.435897435897,1.93342195309732,647.435897435897,2.0283399035893
649.038461538462,1.93298448782161,649.038461538462,2.02836181605899
657.051282051282,1.92641825555317,657.051282051282,2.02847225231949
658.653846153846,1.92478854581377,658.653846153846,2.02849451411611
666.666666666667,1.92148619644584,666.666666666667,2.02860669401683
668.269230769231,1.92043483730534,668.269230769231,2.02862930395864
677.884615384616,1.91599145521066,677.884615384616,2.02876617877538
679.48717948718,1.9156938282513,679.48717948718,2.02878919349771
687.5,1.9116788641538,687.5,2.02890513220381
689.102564102564,1.91041522312188,689.102564102564,2.02892849277219
698.717948717949,1.90625586295563,698.717948717949,2.02906986375174
700.320512820513,1.90585127215374,700.320512820513,2.02909362660496
709.935897435898,1.90138711903341,709.935897435898,2.02923740762575
711.538461538462,1.90075275617111,711.538461538462,2.02926157155821
719.551282051282,1.89806279540668,719.551282051282,2.02938324882664
721.153846153846,1.89809105381566,721.153846153846,2.02940775564638
730.769230769231,1.89400327067048,730.769230769231,2.02955599432509
732.371794871795,1.89325213347794,732.371794871795,2.02958090020444
741.98717948718,1.89119991125634,741.98717948718,2.02973153025219
743.589743589744,1.89091378965027,743.589743589744,2.02975683420779
753.205128205128,1.88896923822929,753.205128205128,2.02990984992087
754.807692307692,1.88844310282584,754.807692307692,2.02993555103367
766.025641025641,1.8855460475476,766.025641025641,2.03011704448609
767.628205128205,1.88511684387119,767.628205128205,2.03014319844233
777.24358974359,1.88373259769905,777.24358974359,2.03030130875748
778.846153846154,1.88360552465794,778.846153846154,2.03032785809196
790.064102564103,1.88208291710747,790.064102564103,2.03051528235502
791.666666666667,1.88210299457033,791.666666666667,2.03054228263211
801.282051282051,1.88136832716968,801.282051282051,2.03070546614481
802.884615384616,1.88141666245512,802.884615384616,2.03073286024208
814.102564102564,1.88315222233538,814.102564102564,2.03092619192065
