"Stiffness of Suspension Kms (X)"					
"Kms (|X| < Xprot)"		"Kmt (|X| < Xprot)"		"Kmt (-X)"	
"X [mm]"	"Kms [N/mm]"	"X [mm]"	"Kms [N/mm]"	"X [mm]"	"Kms [N/mm]"
-2.33771	1.06766	-2.33771	2.46239	2.33771	2.46239
-2.32602	1.05524	-2.32602	2.44952	2.32602	2.44952
-2.31433	1.04299	-2.31433	2.43684	2.31433	2.43684
-2.30265	1.03093	-2.30265	2.42434	2.30265	2.42434
-2.29096	1.01904	-2.29096	2.41201	2.29096	2.41201
-2.27927	1.00733	-2.27927	2.39986	2.27927	2.39986
-2.26758	0.995799	-2.26758	2.38789	2.26758	2.38789
-2.25589	0.984437	-2.25589	2.37609	2.25589	2.37609
-2.2442	0.973245	-2.2442	2.36446	2.2442	2.36446
-2.23251	0.962223	-2.23251	2.353	2.23251	2.353
-2.22083	0.951368	-2.22083	2.3417	2.22083	2.3417
-2.20914	0.940679	-2.20914	2.33058	2.20914	2.33058
-2.19745	0.930155	-2.19745	2.31961	2.19745	2.31961
-2.18576	0.919792	-2.18576	2.30881	2.18576	2.30881
-2.17407	0.90959	-2.17407	2.29817	2.17407	2.29817
-2.16238	0.899547	-2.16238	2.28769	2.16238	2.28769
-2.15069	0.889661	-2.15069	2.27737	2.15069	2.27737
-2.13901	0.87993	-2.13901	2.2672	2.13901	2.2672
-2.12732	0.870354	-2.12732	2.25719	2.12732	2.25719
-2.11563	0.86093	-2.11563	2.24733	2.11563	2.24733
-2.10394	0.851656	-2.10394	2.23762	2.10394	2.23762
-2.09225	0.842531	-2.09225	2.22806	2.09225	2.22806
-2.08056	0.833554	-2.08056	2.21865	2.08056	2.21865
-2.06887	0.824722	-2.06887	2.20938	2.06887	2.20938
-2.05719	0.816034	-2.05719	2.20026	2.05719	2.20026
-2.0455	0.807489	-2.0455	2.19128	2.0455	2.19128
-2.03381	0.799084	-2.03381	2.18244	2.03381	2.18244
-2.02212	0.790819	-2.02212	2.17374	2.02212	2.17374
-2.01043	0.782692	-2.01043	2.16518	2.01043	2.16518
-1.99874	0.7747	-1.99874	2.15675	1.99874	2.15675
-1.98705	0.766844	-1.98705	2.14846	1.98705	2.14846
-1.97537	0.75912	-1.97537	2.1403	1.97537	2.1403
-1.96368	0.751527	-1.96368	2.13228	1.96368	2.13228
-1.95199	0.744065	-1.95199	2.12438	1.95199	2.12438
-1.9403	0.736731	-1.9403	2.11661	1.9403	2.11661
-1.92861	0.729524	-1.92861	2.10897	1.92861	2.10897
-1.91692	0.722442	-1.91692	2.10146	1.91692	2.10146
-1.90523	0.715484	-1.90523	2.09407	1.90523	2.09407
-1.89355	0.708648	-1.89355	2.0868	1.89355	2.0868
-1.88186	0.701934	-1.88186	2.07966	1.88186	2.07966
-1.87017	0.695339	-1.87017	2.07263	1.87017	2.07263
-1.85848	0.688861	-1.85848	2.06572	1.85848	2.06572
-1.84679	0.682501	-1.84679	2.05893	1.84679	2.05893
-1.8351	0.676255	-1.8351	2.05225	1.8351	2.05225
-1.82341	0.670123	-1.82341	2.04569	1.82341	2.04569
-1.81173	0.664103	-1.81173	2.03924	1.81173	2.03924
-1.80004	0.658194	-1.80004	2.0329	1.80004	2.0329
-1.78835	0.652394	-1.78835	2.02667	1.78835	2.02667
-1.77666	0.646703	-1.77666	2.02055	1.77666	2.02055
-1.76497	0.641117	-1.76497	2.01453	1.76497	2.01453
-1.75328	0.635637	-1.75328	2.00863	1.75328	2.00863
-1.74159	0.630261	-1.74159	2.00282	1.74159	2.00282
-1.72991	0.624988	-1.72991	1.99712	1.72991	1.99712
-1.71822	0.619815	-1.71822	1.99152	1.71822	1.99152
-1.70653	0.614742	-1.70653	1.98601	1.70653	1.98601
-1.69484	0.609767	-1.69484	1.98061	1.69484	1.98061
-1.68315	0.60489	-1.68315	1.97531	1.68315	1.97531
-1.67146	0.600108	-1.67146	1.9701	1.67146	1.9701
-1.65977	0.595421	-1.65977	1.96498	1.65977	1.96498
-1.64809	0.590827	-1.64809	1.95996	1.64809	1.95996
-1.6364	0.586325	-1.6364	1.95503	1.6364	1.95503
-1.62471	0.581913	-1.62471	1.95019	1.62471	1.95019
-1.61302	0.57759	-1.61302	1.94544	1.61302	1.94544
-1.60133	0.573356	-1.60133	1.94078	1.60133	1.94078
-1.58964	0.569208	-1.58964	1.93621	1.58964	1.93621
-1.57796	0.565145	-1.57796	1.93172	1.57796	1.93172
-1.56627	0.561167	-1.56627	1.92732	1.56627	1.92732
-1.55458	0.557272	-1.55458	1.923	1.55458	1.923
-1.54289	0.553459	-1.54289	1.91876	1.54289	1.91876
-1.5312	0.549726	-1.5312	1.9146	1.5312	1.9146
-1.51951	0.546073	-1.51951	1.91052	1.51951	1.91052
-1.50782	0.542498	-1.50782	1.90652	1.50782	1.90652
-1.49614	0.538999	-1.49614	1.9026	1.49614	1.9026
-1.48445	0.535577	-1.48445	1.89875	1.48445	1.89875
-1.47276	0.532229	-1.47276	1.89498	1.47276	1.89498
-1.46107	0.528954	-1.46107	1.89128	1.46107	1.89128
-1.44938	0.525752	-1.44938	1.88766	1.44938	1.88766
-1.43769	0.522621	-1.43769	1.8841	1.43769	1.8841
-1.426	0.51956	-1.426	1.88062	1.426	1.88062
-1.41432	0.516568	-1.41432	1.8772	1.41432	1.8772
-1.40263	0.513644	-1.40263	1.87386	1.40263	1.87386
-1.39094	0.510786	-1.39094	1.87058	1.39094	1.87058
-1.37925	0.507994	-1.37925	1.86736	1.37925	1.86736
-1.36756	0.505266	-1.36756	1.86421	1.36756	1.86421
-1.35587	0.502602	-1.35587	1.86113	1.35587	1.86113
-1.34418	0.5	-1.34418	1.8581	1.34418	1.8581
-1.3325	0.497459	-1.3325	1.85514	1.3325	1.85514
-1.32081	0.494978	-1.32081	1.85224	1.32081	1.85224
-1.30912	0.492557	-1.30912	1.8494	1.30912	1.8494
-1.29743	0.490193	-1.29743	1.84661	1.29743	1.84661
-1.28574	0.487887	-1.28574	1.84389	1.28574	1.84389
-1.27405	0.485636	-1.27405	1.84122	1.27405	1.84122
-1.26236	0.483441	-1.26236	1.8386	1.26236	1.8386
-1.25068	0.4813	-1.25068	1.83604	1.25068	1.83604
-1.23899	0.479211	-1.23899	1.83353	1.23899	1.83353
-1.2273	0.477175	-1.2273	1.83108	1.2273	1.83108
-1.21561	0.47519	-1.21561	1.82867	1.21561	1.82867
-1.20392	0.473255	-1.20392	1.82632	1.20392	1.82632
-1.19223	0.471369	-1.19223	1.82402	1.19223	1.82402
-1.18054	0.469531	-1.18054	1.82176	1.18054	1.82176
-1.16886	0.46774	-1.16886	1.81955	1.16886	1.81955
-1.15717	0.465996	-1.15717	1.81739	1.15717	1.81739
-1.14548	0.464297	-1.14548	1.81527	1.14548	1.81527
-1.13379	0.462643	-1.13379	1.8132	1.13379	1.8132
-1.1221	0.461032	-1.1221	1.81117	1.1221	1.81117
-1.11041	0.459464	-1.11041	1.80919	1.11041	1.80919
-1.09872	0.457937	-1.09872	1.80724	1.09872	1.80724
-1.08704	0.456451	-1.08704	1.80534	1.08704	1.80534
-1.07535	0.455006	-1.07535	1.80348	1.07535	1.80348
-1.06366	0.453599	-1.06366	1.80166	1.06366	1.80166
-1.05197	0.452231	-1.05197	1.79987	1.05197	1.79987
-1.04028	0.4509	-1.04028	1.79813	1.04028	1.79813
-1.02859	0.449606	-1.02859	1.79642	1.02859	1.79642
-1.0169	0.448348	-1.0169	1.79474	1.0169	1.79474
-1.00522	0.447125	-1.00522	1.79311	1.00522	1.79311
-0.993527	0.445935	-0.993527	1.7915	0.993527	1.7915
-0.981839	0.44478	-0.981839	1.78993	0.981839	1.78993
-0.97015	0.443656	-0.97015	1.78839	0.97015	1.78839
-0.958462	0.442565	-0.958462	1.78689	0.958462	1.78689
-0.946773	0.441504	-0.946773	1.78541	0.946773	1.78541
-0.935084	0.440474	-0.935084	1.78397	0.935084	1.78397
-0.923396	0.439473	-0.923396	1.78256	0.923396	1.78256
-0.911707	0.438501	-0.911707	1.78117	0.911707	1.78117
-0.900019	0.437557	-0.900019	1.77981	0.900019	1.77981
-0.88833	0.43664	-0.88833	1.77848	0.88833	1.77848
-0.876642	0.43575	-0.876642	1.77718	0.876642	1.77718
-0.864953	0.434886	-0.864953	1.77591	0.864953	1.77591
-0.853265	0.434046	-0.853265	1.77465	0.853265	1.77465
-0.841576	0.433231	-0.841576	1.77343	0.841576	1.77343
-0.829887	0.43244	-0.829887	1.77223	0.829887	1.77223
-0.818199	0.431672	-0.818199	1.77105	0.818199	1.77105
-0.80651	0.430927	-0.80651	1.76989	0.80651	1.76989
-0.794822	0.430203	-0.794822	1.76875	0.794822	1.76875
-0.783133	0.4295	-0.783133	1.76764	0.783133	1.76764
-0.771445	0.428817	-0.771445	1.76655	0.771445	1.76655
-0.759756	0.428155	-0.759756	1.76548	0.759756	1.76548
-0.748068	0.427511	-0.748068	1.76442	0.748068	1.76442
-0.736379	0.426887	-0.736379	1.76339	0.736379	1.76339
-0.72469	0.42628	-0.72469	1.76237	0.72469	1.76237
-0.713002	0.42569	-0.713002	1.76137	0.713002	1.76137
-0.701313	0.425118	-0.701313	1.76039	0.701313	1.76039
-0.689625	0.424561	-0.689625	1.75943	0.689625	1.75943
-0.677936	0.42402	-0.677936	1.75848	0.677936	1.75848
-0.666248	0.423495	-0.666248	1.75754	0.666248	1.75754
-0.654559	0.422983	-0.654559	1.75662	0.654559	1.75662
-0.642871	0.422486	-0.642871	1.75572	0.642871	1.75572
-0.631182	0.422002	-0.631182	1.75483	0.631182	1.75483
-0.619493	0.421531	-0.619493	1.75395	0.619493	1.75395
-0.607805	0.421073	-0.607805	1.75308	0.607805	1.75308
-0.596116	0.420626	-0.596116	1.75223	0.596116	1.75223
-0.584428	0.420191	-0.584428	1.75139	0.584428	1.75139
-0.572739	0.419766	-0.572739	1.75055	0.572739	1.75055
-0.561051	0.419352	-0.561051	1.74973	0.561051	1.74973
-0.549362	0.418948	-0.549362	1.74892	0.549362	1.74892
-0.537674	0.418553	-0.537674	1.74812	0.537674	1.74812
-0.525985	0.418168	-0.525985	1.74733	0.525985	1.74733
-0.514296	0.417791	-0.514296	1.74655	0.514296	1.74655
-0.502608	0.417422	-0.502608	1.74578	0.502608	1.74578
-0.490919	0.417061	-0.490919	1.74501	0.490919	1.74501
-0.479231	0.416707	-0.479231	1.74425	0.479231	1.74425
-0.467542	0.41636	-0.467542	1.7435	0.467542	1.7435
-0.455854	0.416019	-0.455854	1.74275	0.455854	1.74275
-0.444165	0.415684	-0.444165	1.74202	0.444165	1.74202
-0.432477	0.415355	-0.432477	1.74128	0.432477	1.74128
-0.420788	0.415032	-0.420788	1.74056	0.420788	1.74056
-0.409099	0.414713	-0.409099	1.73983	0.409099	1.73983
-0.397411	0.414399	-0.397411	1.73912	0.397411	1.73912
-0.385722	0.414089	-0.385722	1.7384	0.385722	1.7384
-0.374034	0.413783	-0.374034	1.7377	0.374034	1.7377
-0.362345	0.413481	-0.362345	1.73699	0.362345	1.73699
-0.350657	0.413182	-0.350657	1.73629	0.350657	1.73629
-0.338968	0.412885	-0.338968	1.73559	0.338968	1.73559
-0.32728	0.412592	-0.32728	1.73489	0.32728	1.73489
-0.315591	0.4123	-0.315591	1.7342	0.315591	1.7342
-0.303902	0.412011	-0.303902	1.73351	0.303902	1.73351
-0.292214	0.411723	-0.292214	1.73282	0.292214	1.73282
-0.280525	0.411437	-0.280525	1.73214	0.280525	1.73214
-0.268837	0.411152	-0.268837	1.73145	0.268837	1.73145
-0.257148	0.410868	-0.257148	1.73077	0.257148	1.73077
-0.24546	0.410585	-0.24546	1.73008	0.24546	1.73008
-0.233771	0.410302	-0.233771	1.7294	0.233771	1.7294
-0.222083	0.41002	-0.222083	1.72872	0.222083	1.72872
-0.210394	0.409737	-0.210394	1.72803	0.210394	1.72803
-0.198705	0.409454	-0.198705	1.72735	0.198705	1.72735
-0.187017	0.409171	-0.187017	1.72667	0.187017	1.72667
-0.175328	0.408888	-0.175328	1.72599	0.175328	1.72599
-0.16364	0.408603	-0.16364	1.7253	0.16364	1.7253
-0.151951	0.408318	-0.151951	1.72462	0.151951	1.72462
-0.140263	0.408032	-0.140263	1.72394	0.140263	1.72394
-0.128574	0.407744	-0.128574	1.72325	0.128574	1.72325
-0.116886	0.407455	-0.116886	1.72256	0.116886	1.72256
-0.105197	0.407164	-0.105197	1.72188	0.105197	1.72188
-0.0935084	0.406872	-0.0935084	1.72119	0.0935084	1.72119
-0.0818199	0.406578	-0.0818199	1.7205	0.0818199	1.7205
-0.0701313	0.406282	-0.0701313	1.7198	0.0701313	1.7198
-0.0584428	0.405985	-0.0584428	1.71911	0.0584428	1.71911
-0.0467542	0.405685	-0.0467542	1.71841	0.0467542	1.71841
-0.0350657	0.405382	-0.0350657	1.71771	0.0350657	1.71771
-0.0233771	0.405078	-0.0233771	1.71701	0.0233771	1.71701
-0.0116886	0.404771	-0.0116886	1.71631	0.0116886	1.71631
0	0.404462	0	1.71561	-0	1.71561
0.0116886	0.404151	0.0116886	1.7149	-0.0116886	1.7149
0.0233771	0.403837	0.0233771	1.71419	-0.0233771	1.71419
0.0350657	0.403521	0.0350657	1.71348	-0.0350657	1.71348
0.0467542	0.403202	0.0467542	1.71277	-0.0467542	1.71277
0.0584428	0.40288	0.0584428	1.71205	-0.0584428	1.71205
0.0701313	0.402556	0.0701313	1.71133	-0.0701313	1.71133
0.0818199	0.40223	0.0818199	1.71061	-0.0818199	1.71061
0.0935084	0.401901	0.0935084	1.70989	-0.0935084	1.70989
0.105197	0.401569	0.105197	1.70916	-0.105197	1.70916
0.116886	0.401235	0.116886	1.70844	-0.116886	1.70844
0.128574	0.400898	0.128574	1.70771	-0.128574	1.70771
0.140263	0.40056	0.140263	1.70697	-0.140263	1.70697
0.151951	0.400218	0.151951	1.70624	-0.151951	1.70624
0.16364	0.399875	0.16364	1.70551	-0.16364	1.70551
0.175328	0.399529	0.175328	1.70477	-0.175328	1.70477
0.187017	0.399182	0.187017	1.70403	-0.187017	1.70403
0.198705	0.398832	0.198705	1.70329	-0.198705	1.70329
0.210394	0.39848	0.210394	1.70254	-0.210394	1.70254
0.222083	0.398127	0.222083	1.7018	-0.222083	1.7018
0.233771	0.397772	0.233771	1.70105	-0.233771	1.70105
0.24546	0.397415	0.24546	1.7003	-0.24546	1.7003
0.257148	0.397057	0.257148	1.69956	-0.257148	1.69956
0.268837	0.396698	0.268837	1.69881	-0.268837	1.69881
0.280525	0.396337	0.280525	1.69806	-0.280525	1.69806
0.292214	0.395976	0.292214	1.6973	-0.292214	1.6973
0.303902	0.395613	0.303902	1.69655	-0.303902	1.69655
0.315591	0.39525	0.315591	1.6958	-0.315591	1.6958
0.32728	0.394887	0.32728	1.69505	-0.32728	1.69505
0.338968	0.394524	0.338968	1.6943	-0.338968	1.6943
0.350657	0.39416	0.350657	1.69354	-0.350657	1.69354
0.362345	0.393797	0.362345	1.69279	-0.362345	1.69279
0.374034	0.393434	0.374034	1.69204	-0.374034	1.69204
0.385722	0.393072	0.385722	1.69129	-0.385722	1.69129
0.397411	0.392711	0.397411	1.69054	-0.397411	1.69054
0.409099	0.39235	0.409099	1.68979	-0.409099	1.68979
0.420788	0.391992	0.420788	1.68905	-0.420788	1.68905
0.432477	0.391635	0.432477	1.6883	-0.432477	1.6883
0.444165	0.391279	0.444165	1.68756	-0.444165	1.68756
0.455854	0.390927	0.455854	1.68682	-0.455854	1.68682
0.467542	0.390576	0.467542	1.68608	-0.467542	1.68608
0.479231	0.390229	0.479231	1.68535	-0.479231	1.68535
0.490919	0.389884	0.490919	1.68462	-0.490919	1.68462
0.502608	0.389544	0.502608	1.68389	-0.502608	1.68389
0.514296	0.389207	0.514296	1.68317	-0.514296	1.68317
0.525985	0.388874	0.525985	1.68245	-0.525985	1.68245
0.537674	0.388545	0.537674	1.68174	-0.537674	1.68174
0.549362	0.388222	0.549362	1.68103	-0.549362	1.68103
0.561051	0.387903	0.561051	1.68033	-0.561051	1.68033
0.572739	0.387591	0.572739	1.67963	-0.572739	1.67963
0.584428	0.387284	0.584428	1.67894	-0.584428	1.67894
0.596116	0.386984	0.596116	1.67825	-0.596116	1.67825
0.607805	0.38669	0.607805	1.67758	-0.607805	1.67758
0.619493	0.386404	0.619493	1.67691	-0.619493	1.67691
0.631182	0.386125	0.631182	1.67625	-0.631182	1.67625
0.642871	0.385854	0.642871	1.67559	-0.642871	1.67559
0.654559	0.385592	0.654559	1.67495	-0.654559	1.67495
0.666248	0.385338	0.666248	1.67431	-0.666248	1.67431
0.677936	0.385094	0.677936	1.67368	-0.677936	1.67368
0.689625	0.38486	0.689625	1.67307	-0.689625	1.67307
0.701313	0.384636	0.701313	1.67246	-0.701313	1.67246
0.713002	0.384423	0.713002	1.67187	-0.713002	1.67187
0.72469	0.384221	0.72469	1.67128	-0.72469	1.67128
0.736379	0.384031	0.736379	1.67071	-0.736379	1.67071
0.748068	0.383853	0.748068	1.67015	-0.748068	1.67015
0.759756	0.383688	0.759756	1.66961	-0.759756	1.66961
0.771445	0.383537	0.771445	1.66907	-0.771445	1.66907
0.783133	0.383399	0.783133	1.66856	-0.783133	1.66856
0.794822	0.383276	0.794822	1.66805	-0.794822	1.66805
0.80651	0.383167	0.80651	1.66756	-0.80651	1.66756
0.818199	0.383074	0.818199	1.66709	-0.818199	1.66709
0.829887	0.382997	0.829887	1.66664	-0.829887	1.66664
0.841576	0.382937	0.841576	1.6662	-0.841576	1.6662
0.853265	0.382894	0.853265	1.66577	-0.853265	1.66577
0.864953	0.382869	0.864953	1.66537	-0.864953	1.66537
0.876642	0.382862	0.876642	1.66498	-0.876642	1.66498
0.88833	0.382874	0.88833	1.66462	-0.88833	1.66462
0.900019	0.382906	0.900019	1.66427	-0.900019	1.66427
0.911707	0.382959	0.911707	1.66395	-0.911707	1.66395
0.923396	0.383032	0.923396	1.66364	-0.923396	1.66364
0.935084	0.383127	0.935084	1.66336	-0.935084	1.66336
0.946773	0.383244	0.946773	1.6631	-0.946773	1.6631
0.958462	0.383384	0.958462	1.66286	-0.958462	1.66286
0.97015	0.383548	0.97015	1.66265	-0.97015	1.66265
0.981839	0.383736	0.981839	1.66246	-0.981839	1.66246
0.993527	0.383949	0.993527	1.6623	-0.993527	1.6623
1.00522	0.384187	1.00522	1.66216	-1.00522	1.66216
1.0169	0.384452	1.0169	1.66205	-1.0169	1.66205
1.02859	0.384744	1.02859	1.66196	-1.02859	1.66196
1.04028	0.385064	1.04028	1.66191	-1.04028	1.66191
1.05197	0.385413	1.05197	1.66188	-1.05197	1.66188
1.06366	0.38579	1.06366	1.66189	-1.06366	1.66189
1.07535	0.386198	1.07535	1.66192	-1.07535	1.66192
1.08704	0.386637	1.08704	1.66198	-1.08704	1.66198
1.09872	0.387107	1.09872	1.66208	-1.09872	1.66208
1.11041	0.38761	1.11041	1.66221	-1.11041	1.66221
1.1221	0.388146	1.1221	1.66237	-1.1221	1.66237
1.13379	0.388716	1.13379	1.66257	-1.13379	1.66257
1.14548	0.389321	1.14548	1.6628	-1.14548	1.6628
1.15717	0.389961	1.15717	1.66306	-1.15717	1.66306
1.16886	0.390638	1.16886	1.66337	-1.16886	1.66337
1.18054	0.391352	1.18054	1.66371	-1.18054	1.66371
1.19223	0.392104	1.19223	1.66409	-1.19223	1.66409
1.20392	0.392895	1.20392	1.66451	-1.20392	1.66451
1.21561	0.393726	1.21561	1.66497	-1.21561	1.66497
1.2273	0.394597	1.2273	1.66547	-1.2273	1.66547
1.23899	0.39551	1.23899	1.66601	-1.23899	1.66601
1.25068	0.396466	1.25068	1.66659	-1.25068	1.66659
1.26236	0.397465	1.26236	1.66722	-1.26236	1.66722
1.27405	0.398508	1.27405	1.66789	-1.27405	1.66789
1.28574	0.399596	1.28574	1.66861	-1.28574	1.66861
1.29743	0.400731	1.29743	1.66937	-1.29743	1.66937
1.30912	0.401912	1.30912	1.67018	-1.30912	1.67018
1.32081	0.403142	1.32081	1.67104	-1.32081	1.67104
1.3325	0.40442	1.3325	1.67195	-1.3325	1.67195
1.34418	0.405749	1.34418	1.67291	-1.34418	1.67291
1.35587	0.407128	1.35587	1.67392	-1.35587	1.67392
1.36756	0.408559	1.36756	1.67498	-1.36756	1.67498
1.37925	0.410042	1.37925	1.6761	-1.37925	1.6761
1.39094	0.41158	1.39094	1.67727	-1.39094	1.67727
1.40263	0.413172	1.40263	1.67849	-1.40263	1.67849
1.41432	0.414821	1.41432	1.67977	-1.41432	1.67977
1.426	0.416526	1.426	1.68111	-1.426	1.68111
1.43769	0.418288	1.43769	1.6825	-1.43769	1.6825
1.44938	0.42011	1.44938	1.68396	-1.44938	1.68396
1.46107	0.421992	1.46107	1.68547	-1.46107	1.68547
1.47276	0.423935	1.47276	1.68705	-1.47276	1.68705
1.48445	0.425939	1.48445	1.68868	-1.48445	1.68868
1.49614	0.428007	1.49614	1.69038	-1.49614	1.69038
1.50782	0.430139	1.50782	1.69215	-1.50782	1.69215
1.51951	0.432337	1.51951	1.69398	-1.51951	1.69398
1.5312	0.434601	1.5312	1.69588	-1.5312	1.69588
1.54289	0.436932	1.54289	1.69785	-1.54289	1.69785
1.55458	0.439332	1.55458	1.69988	-1.55458	1.69988
1.56627	0.441802	1.56627	1.70198	-1.56627	1.70198
1.57796	0.444342	1.57796	1.70416	-1.57796	1.70416
1.58964	0.446955	1.58964	1.70641	-1.58964	1.70641
1.60133	0.449641	1.60133	1.70873	-1.60133	1.70873
1.61302	0.452401	1.61302	1.71112	-1.61302	1.71112
1.62471	0.455237	1.62471	1.7136	-1.62471	1.7136
1.6364	0.45815	1.6364	1.71614	-1.6364	1.71614
1.64809	0.46114	1.64809	1.71877	-1.64809	1.71877
1.65977	0.464209	1.65977	1.72148	-1.65977	1.72148
1.67146	0.467359	1.67146	1.72426	-1.67146	1.72426
1.68315	0.470591	1.68315	1.72713	-1.68315	1.72713
1.69484	0.473905	1.69484	1.73008	-1.69484	1.73008
1.70653	0.477303	1.70653	1.73312	-1.70653	1.73312
1.71822	0.480786	1.71822	1.73624	-1.71822	1.73624
1.72991	0.484355	1.72991	1.73945	-1.72991	1.73945
1.74159	0.488013	1.74159	1.74274	-1.74159	1.74274
1.75328	0.491759	1.75328	1.74613	-1.75328	1.74613
1.76497	0.495596	1.76497	1.7496	-1.76497	1.7496
1.77666	0.499524	1.77666	1.75317	-1.77666	1.75317
1.78835	0.503545	1.78835	1.75683	-1.78835	1.75683
1.80004	0.50766	1.80004	1.76058	-1.80004	1.76058
1.81173	0.511871	1.81173	1.76443	-1.81173	1.76443
1.82341	0.516178	1.82341	1.76838	-1.82341	1.76838
1.8351	0.520584	1.8351	1.77243	-1.8351	1.77243
1.84679	0.525089	1.84679	1.77657	-1.84679	1.77657
1.85848	0.529694	1.85848	1.78082	-1.85848	1.78082
1.87017	0.534402	1.87017	1.78516	-1.87017	1.78516
1.88186	0.539214	1.88186	1.78962	-1.88186	1.78962
1.89355	0.54413	1.89355	1.79417	-1.89355	1.79417
1.90523	0.549153	1.90523	1.79884	-1.90523	1.79884
1.91692	0.554283	1.91692	1.80361	-1.91692	1.80361
1.92861	0.559522	1.92861	1.80849	-1.92861	1.80849
1.9403	0.564872	1.9403	1.81348	-1.9403	1.81348
1.95199	0.570334	1.95199	1.81859	-1.95199	1.81859
1.96368	0.575909	1.96368	1.8238	-1.96368	1.8238
1.97537	0.581598	1.97537	1.82914	-1.97537	1.82914
1.98705	0.587404	1.98705	1.83458	-1.98705	1.83458
1.99874	0.593328	1.99874	1.84015	-1.99874	1.84015
2.01043	0.59937	2.01043	1.84584	-2.01043	1.84584
2.02212	0.605534	2.02212	1.85164	-2.02212	1.85164
2.03381	0.611819	2.03381	1.85757	-2.03381	1.85757
2.0455	0.618228	2.0455	1.86363	-2.0455	1.86363
2.05719	0.624762	2.05719	1.8698	-2.05719	1.8698
2.06887	0.631422	2.06887	1.87611	-2.06887	1.87611
2.08056	0.638211	2.08056	1.88254	-2.08056	1.88254
2.09225	0.645129	2.09225	1.8891	-2.09225	1.8891
2.10394	0.652178	2.10394	1.8958	-2.10394	1.8958
2.11563	0.65936	2.11563	1.90263	-2.11563	1.90263
2.12732	0.666676	2.12732	1.90959	-2.12732	1.90959
2.13901	0.674128	2.13901	1.91668	-2.13901	1.91668
2.15069	0.681717	2.15069	1.92392	-2.15069	1.92392
2.16238	0.689446	2.16238	1.93129	-2.16238	1.93129
2.17407	0.697314	2.17407	1.93881	-2.17407	1.93881
